"Region1 2D Boundaries: Direction [1,0,0] (m)","Region1 2D Boundaries: cf_num","Cf_wall_inf_exp: X","Cf_wall_inf_exp: Cf"
7.949999999999962E-4,-3.9485595625847864E-5,-0.05024,0.00288
0.002384999999999993,-2.8514908050754497E-4,-0.02291,0.00285
0.003974999999999994,-5.191625059843626E-4,-0.01021,0.00311
0.0055649999999999875,-7.63390543617759E-4,0.0,0.0
0.007154999999999976,-9.69148658596306E-4,0.00615,9.0E-5
0.008744999999999972,-0.0011529721234805983,0.02291,-1.1E-4
0.01033499999999997,-0.0013072373129694465,0.03561,-5.2E-4
0.011924999999999967,-0.0014401488120265801,0.04831,-0.00102
0.013514999999999963,-0.0015538855855597425,0.06101,-8.2E-4
0.015104999999999955,-0.0016423141702590466,0.0747,-2.2E-4
0.016694999999999953,-0.0017078465944656634,0.09004,4.5E-4
0.018284999999999954,-0.0017499739879810277,0.10132,0.00102
0.019874999999999955,-0.0017652767674272126,0.11679,0.00118
0.021464999999999963,-0.0017545571601367477,0.14219,0.00154
0.023054999999999964,-0.0017180110315237176,0.16759,0.00173
0.024644999999999966,-0.0016573344520763695,0.20569,0.00191
0.02623499999999997,-0.0015755055713682557,0.25649,0.00202
0.027824999999999968,-0.0014759330776948627,0.30653,0.00204
0.029414999999999965,-0.0013620772034486424,0.35725,0.00205
0.031004999999999967,-0.0012375394184904898,0.40889,0.00212
0.03259499999999996,-0.001105367967844341,0.45712,0.0023
0.03418499999999996,-9.683112426109361E-4,null,null
0.03577499999999997,-8.288236672088027E-4,null,null
0.03736499999999997,-6.89106263737406E-4,null,null
0.038954999999999976,-5.51599583070622E-4,null,null
0.04054499999999998,-4.1571188885932634E-4,null,null
0.04213499999999998,-2.818657681209273E-4,null,null
0.04372499999999998,-1.5248378371682887E-4,null,null
0.04531499999999998,-2.433932621104043E-5,null,null
0.046904999999999974,1.004601684235766E-4,null,null
0.048494999999999976,2.0432682068529298E-4,null,null
0.05008499999999998,3.043608418742198E-4,null,null
0.051674999999999985,3.9851185023074783E-4,null,null
0.053264999999999986,4.8638354381854587E-4,null,null
0.05485499999999999,5.68559662502294E-4,null,null
0.05644499999999998,6.453744918236382E-4,null,null
0.05803499999999998,7.171977950133977E-4,null,null
0.059624999999999984,7.844094545051409E-4,null,null
0.061214999999999985,8.4735978043564E-4,null,null
0.06280499999999999,9.063937615483361E-4,null,null
0.06439500000000001,9.616644126853977E-4,null,null
0.065985,0.001013362841683047,null,null
0.067575,0.0010621040087290304,null,null
0.069165,0.001107950912073353,null,null
0.07075499999999998,0.0011511408577374429,null,null
0.07234499999999999,0.0011917964327175352,null,null
0.073935,0.0012303389213138153,null,null
0.075525,0.0012663213772739408,null,null
0.07711499999999999,0.0013017534367425084,null,null
0.078705,0.0013285916629851306,null,null
0.08092833333333332,0.0013706127510400572,null,null
0.083785,0.001418660560505957,null,null
0.08664166666666667,0.0014661312494168247,null,null
0.08949833333333335,0.001507288466945402,null,null
0.09235499999999999,0.0015448612433127536,null,null
0.09521166666666667,0.0015790488863582257,null,null
0.09806833333333334,0.0016103269132522328,null,null
0.10092500000000001,0.0016390660342260233,null,null
0.10378166666666667,0.0016655763688353674,null,null
0.10663833333333333,0.0016901076377204886,null,null
0.10949500000000001,0.0017128645085742844,null,null
0.11235166666666667,0.001734020709965456,null,null
0.11520833333333333,0.0017537244370858932,null,null
0.118065,0.001772102046266907,null,null
0.12092166666666668,0.0017892583416536957,null,null
0.12377833333333332,0.001805287813072182,null,null
0.126635,0.0018202802291377165,null,null
0.12949166666666667,0.0018343155838660803,null,null
0.13234833333333335,0.0018474652371839018,null,null
0.135205,0.0018597953836373764,null,null
0.13806166666666667,0.0018713659462715193,null,null
0.14091833333333334,0.0018822288157335073,null,null
0.14377500000000001,0.0018924316511670658,null,null
0.14663166666666666,0.0019020157664914204,null,null
0.14948833333333333,0.001911022200787498,null,null
0.152345,0.0019194860161954384,null,null
0.15520166666666668,0.0019274400388450284,null,null
0.15805833333333336,0.0019349158805387896,null,null
0.160915,0.0019419448127300219,null,null
0.16377166666666668,0.001948554911206061,null,null
0.16662833333333332,0.0019547726280125743,null,null
0.169485,0.0019606229295528977,null,null
0.17234166666666667,0.0019661290193313465,null,null
0.17519833333333334,0.001971312258974755,null,null
0.17805500000000002,0.0019761935896748083,null,null
0.18091166666666667,0.0019807929079383117,null,null
0.18376833333333334,0.0019851281704990134,null,null
0.186625,0.001989215790673936,null,null
0.18948166666666666,0.001993071001666803,null,null
0.19233833333333333,0.0019967081453879125,null,null
0.195195,0.0020001405680355982,null,null
0.19805166666666668,0.0020033807411961604,null,null
0.20090833333333336,0.002006440386482241,null,null
0.203765,0.0020093307495970478,null,null
0.2066216666666667,0.0020120626432656493,null,null
0.20947833333333338,0.0020146463420231586,null,null
0.21233500000000002,0.0020170915631813314,null,null
0.21519166666666667,0.0020194074012294086,null,null
0.21804833333333334,0.0020216024505470644,null,null
0.22090500000000002,0.002023684776085657,null,null
0.2237616666666667,0.0020256617063562025,null,null
0.22661833333333334,0.0020275398584599855,null,null
0.229475,0.0020293253503471565,null,null
0.2323316666666667,0.00203102396944335,null,null
0.23518833333333336,0.0020326412163108633,null,null
0.238045,0.0020341822631367253,null,null
0.24090166666666668,0.0020356519712782873,null,null
0.24375833333333335,0.0020370549691350473,null,null
0.24661500000000003,0.0020383956537000474,null,null
0.2494716666666667,0.00203967817032982,null,null
0.2523283333333334,0.0020409063912474267,null,null
0.255185,0.0020420839187417317,null,null
0.2580416666666667,0.0020432141254433625,null,null
0.26089833333333334,0.002044300212839715,null,null
0.263755,0.002045345172923169,null,null
0.2666116666666667,0.0020463517223346167,null,null
0.26946833333333337,0.0020473224092924045,null,null
0.27232500000000004,0.0020482593617208644,null,null
0.27518166666666666,0.0020491650471521302,null,null
0.27803833333333333,0.0020500404831183443,null,null
0.280895,0.0020508869321540094,null,null
0.2837516666666667,0.0020517061190926974,null,null
0.28660833333333335,0.0020525001106180664,null,null
0.28946500000000003,0.002053271020642436,null,null
0.2923216666666667,0.0020540208479342195,null,null
0.2951783333333333,0.0020547514299486366,null,null
0.29803500000000005,0.002055464458560912,null,null
0.30089166666666667,0.0020561615116883466,null,null
0.3037483333333334,0.002056844037940258,null,null
0.306605,0.0020575133278526118,null,null
0.30946166666666675,0.002058170534039909,null,null
0.31231833333333336,0.002058816711420901,null,null
0.31517500000000004,0.0020594528401619056,null,null
0.3180316666666667,0.0020600798305694472,null,null
0.32088833333333333,0.0020606985329818936,null,null
0.32374500000000006,0.0020613097439999813,null,null
0.3266016666666667,0.0020619141952127216,null,null
0.32945833333333335,0.0020625125515262538,null,null
0.332315,0.002063105424783229,null,null
0.3351716666666667,0.002063693394572746,null,null
0.3380283333333334,0.002064277009797955,null,null
0.340885,0.0020648567649274555,null,null
0.34374166666666667,0.0020654330859030717,null,null
0.34659833333333334,0.002066006321113807,null,null
0.34945500000000007,0.0020665767631900182,null,null
0.3523116666666667,0.0020671446721247906,null,null
0.3551683333333333,0.002067710289056583,null,null
0.35802500000000004,0.0020682738391529657,null,null
0.36088166666666666,0.002068835529179082,null,null
0.3637383333333334,0.0020693955551995638,null,null
0.366595,0.002069954114566313,null,null
0.36945166666666673,0.002070511373110855,null,null
0.37230833333333335,0.0020710674985741605,null,null
0.375165,0.0020716226369201897,null,null
0.3780216666666667,0.002072176922864253,null,null
0.3808783333333334,0.002072730486814944,null,null
0.38373500000000005,0.0020732834507777133,null,null
0.38659166666666667,0.002073835920319266,null,null
0.3894483333333334,0.002074387980263963,null,null
0.392305,0.0020749396915203575,null,null
0.39516166666666674,0.00207549109326173,null,null
0.39801833333333336,0.002076042213429211,null,null
0.400875,0.0020765930779637998,null,null
0.4037316666666667,0.0020771437114843333,null,null
0.40658833333333333,0.002077694133077507,null,null
0.40944500000000006,0.002078244353340983,null,null
0.4123016666666667,0.0020787943739398675,null,null
0.4151583333333334,0.002079344188366557,null,null
0.418015,0.0020798937833702916,null,null
0.42087166666666664,0.0020804431410565523,null,null
0.4237283333333334,0.002080992241097384,null,null
0.426585,0.0020815410677406617,null,null
0.4294416666666667,0.002082089617045298,null,null
0.43229833333333334,0.0020826379456326204,null,null
0.43515500000000007,0.002083186002539144,null,null
0.4380116666666667,0.002083733786308665,null,null
0.44086833333333336,0.0020842814923611387,null,null
0.44372500000000004,0.002084829389676847,null,null
0.4465816666666667,0.0020853776158645423,null,null
0.4494383333333334,0.0020859262066792485,null,null
0.452295,0.00208647514931681,null,null
0.45515166666666673,0.0020870244049883383,null,null
0.45800833333333335,0.002087573924383788,null,null
0.4608650000000001,0.0020881236575450413,null,null
0.4637216666666667,0.002088673559871703,null,null
0.4665783333333333,0.0020892236024588795,null,null
0.46943500000000005,0.002089773793914055,null,null
0.47229166666666667,0.002090324156364302,null,null
0.4751483333333334,0.0020908749156509417,null,null
0.478005,0.00209142628167782,null,null
0.4808616666666667,0.002091978458783185,null,null
0.48371833333333336,0.0020925317953085962,null,null
0.486575,0.002093086611178079,null,null
0.4894316666666667,0.002093644331194332,null,null
0.49228833333333333,0.0020942050802511517,null,null
0.49514500000000006,0.0020947760897273506,null,null
0.4980016666666667,0.002095351014535516,null,null
0.5008583333333334,0.002095980938126654,null,null
0.5037150000000001,0.0020965915426865386,null,null
0.5065716666666666,0.0020976105723015267,null,null
-0.049783999999999995,0.002888563043416511,null,null
-0.047752,0.0028968316576366096,null,null
-0.04572,0.00290487578884568,null,null
-0.043688,0.0029128489690440035,null,null
-0.041656,0.0029207848447969633,null,null
-0.039624,0.002928733573525663,null,null
-0.037592,0.002936738769970879,null,null
-0.035559999999999994,0.0029448435531040733,null,null
-0.033528,0.0029530949002068,null,null
-0.031495999999999996,0.0029615434748793876,null,null
-0.029463999999999997,0.002970244000349474,null,null
-0.027431999999999998,0.002979256459660528,null,null
-0.0254,0.0029886475107199738,null,null
-0.023368,0.0029984922137631744,null,null
-0.021336,0.0030088763175220756,null,null
-0.019304,0.0030198993073444363,null,null
-0.017272,0.003031678615421109,null,null
-0.01524,0.0030443552556705202,null,null
-0.013207999999999998,0.003058102959526708,null,null
-0.011175999999999998,0.003073137198828739,null,null
-0.009144,0.0030897481498272056,null,null
-0.007111999999999997,0.003108269528178145,null,null
-0.005079999999999998,0.0031293884405524607,null,null
-0.0030479999999999986,0.0031527715006936185,null,null
-0.0010159999999999995,0.0031641046261597985,null,null
