"Region1 2D Boundaries: Direction [1,0,0] (m)","Region1 2D Boundaries: cf_num","Cf_wall_inf_exp: X","Cf_wall_inf_exp: Cf"
7.949999999999962E-4,-4.480061466306945E-5,-0.05024,0.00288
0.002384999999999993,-2.6714166089432796E-4,-0.02291,0.00285
0.003974999999999994,-4.73492700651721E-4,-0.01021,0.00311
0.0055649999999999875,-6.870036731072479E-4,0.0,0.0
0.007154999999999976,-8.760467045837492E-4,0.00615,9.0E-5
0.008744999999999972,-0.0010489958866624098,0.02291,-1.1E-4
0.01033499999999997,-0.0012027105016957707,0.03561,-5.2E-4
0.011924999999999967,-0.001338651756088958,0.04831,-0.00102
0.013514999999999963,-0.0014563871792423707,0.06101,-8.2E-4
0.015104999999999955,-0.0015571910591858473,0.0747,-2.2E-4
0.016694999999999953,-0.0016362807389958683,0.09004,4.5E-4
0.018284999999999954,-0.0016942726210640432,0.10132,0.00102
0.019874999999999955,-0.0017311980521436488,0.11679,0.00118
0.021464999999999963,-0.0017432277628019021,0.14219,0.00154
0.023054999999999964,-0.0017308733328761936,0.16759,0.00173
0.024644999999999966,-0.001694077317462211,0.20569,0.00191
0.02623499999999997,-0.0016343799453723787,0.25649,0.00202
0.027824999999999968,-0.0015545345610130383,0.30653,0.00204
0.029414999999999965,-0.0014576111333623463,0.35725,0.00205
0.031004999999999967,-0.001346784065201154,0.40889,0.00212
0.03259499999999996,-0.001225421606172047,0.45712,0.0023
0.03418499999999996,-0.0010964827304781536,null,null
0.03577499999999997,-9.627776206026144E-4,null,null
0.03736499999999997,-8.266470045742231E-4,null,null
0.038954999999999976,-6.90134533289556E-4,null,null
0.04054499999999998,-5.555696050694592E-4,null,null
0.04213499999999998,-4.228903471918273E-4,null,null
0.04372499999999998,-2.9265480648078606E-4,null,null
0.04531499999999998,-1.6567504844463288E-4,null,null
0.046904999999999974,-4.334940133858513E-5,null,null
0.048494999999999976,8.23845320927317E-5,null,null
0.05008499999999998,1.8440339397809394E-4,null,null
0.051674999999999985,2.8172868697469574E-4,null,null
0.053264999999999986,3.7388132531402925E-4,null,null
0.05485499999999999,4.5990063575462013E-4,null,null
0.05644499999999998,5.403984644128402E-4,null,null
0.05803499999999998,6.157131586348708E-4,null,null
0.059624999999999984,6.861394235550963E-4,null,null
0.061214999999999985,7.520335911525363E-4,null,null
0.06280499999999999,8.137667825979053E-4,null,null
0.06439500000000001,8.716979736932875E-4,null,null
0.065985,9.25927475336618E-4,null,null
0.067575,9.767344218885295E-4,null,null
0.069165,0.0010246588532018003,null,null
0.07075499999999998,0.0010698014384403441,null,null
0.07234499999999999,0.0011122867970467655,null,null
0.073935,0.0011525554916768145,null,null
0.075525,0.001190160457704899,null,null
0.07711499999999999,0.0012270774398375765,null,null
0.078705,0.0012546789754555865,null,null
0.08092833333333332,0.0012983751122780279,null,null
0.083785,0.0013479490166303407,null,null
0.08664166666666667,0.0013970638387382948,null,null
0.08949833333333335,0.0014397363336961853,null,null
0.09235499999999999,0.0014787948625760601,null,null
0.09521166666666667,0.0015144452934894165,null,null
0.09806833333333334,0.0015471461617464265,null,null
0.10092500000000001,0.0015772461167531738,null,null
0.10378166666666667,0.001605044847975179,null,null
0.10663833333333333,0.0016307840729826715,null,null
0.10949500000000001,0.0016546695732699258,null,null
0.11235166666666667,0.0016768766527302382,null,null
0.11520833333333333,0.0016975573937905363,null,null
0.118065,0.001716844483941307,null,null
0.12092166666666668,0.0017348546133958856,null,null
0.12377833333333332,0.0017516910639661515,null,null
0.126635,0.0017674458308879369,null,null
0.12949166666666667,0.001782201301748236,null,null
0.13234833333333335,0.0017960316253778582,null,null
0.135205,0.001809003816892714,null,null
0.13806166666666667,0.0018211787977470493,null,null
0.14091833333333334,0.0018326119716073114,null,null
0.14377500000000001,0.0018433542577025233,null,null
0.14663166666666666,0.0018534512789301796,null,null
0.14948833333333333,0.001862946432600841,null,null
0.152345,0.0018718805548696398,null,null
0.15520166666666668,0.0018802893790384096,null,null
0.15805833333333336,0.001888205910802108,null,null
0.160915,0.0018956615901818941,null,null
0.16377166666666668,0.0019026862573175572,null,null
0.16662833333333332,0.0019093071826160304,null,null
0.169485,0.001915549965919682,null,null
0.17234166666666667,0.0019214386833841153,null,null
0.17519833333333334,0.0019269958548530685,null,null
0.17805500000000002,0.0019322422121289824,null,null
0.18091166666666667,0.0019371974959611444,null,null
0.18376833333333334,0.001941879909090408,null,null
0.186625,0.0019463064202611736,null,null
0.18948166666666666,0.0019504930330202562,null,null
0.19233833333333333,0.001954454822928622,null,null
0.195195,0.001958205935607106,null,null
0.19805166666666668,0.0019617596854145654,null,null
0.20090833333333336,0.0019651285154810424,null,null
0.203765,0.0019683242490580906,null,null
0.2066216666666667,0.0019713579526484215,null,null
0.20947833333333338,0.0019742399913644107,null,null
0.21233500000000002,0.001976980122031576,null,null
0.21519166666666667,0.001979587507056949,null,null
0.21804833333333334,0.0019820707418436705,null,null
0.22090500000000002,0.001984437877889645,null,null
0.2237616666666667,0.00198669647297486,null,null
0.22661833333333334,0.0019888535933234,null,null
0.229475,0.0019909158974998047,null,null
0.2323316666666667,0.001992889622193372,null,null
0.23518833333333336,0.001994780596043533,null,null
0.238045,0.0019965942832612547,null,null
0.24090166666666668,0.0019983358101500494,null,null
0.24375833333333335,0.0020000099815523703,null,null
0.24661500000000003,0.0020016212999337726,null,null
0.2494716666666667,0.0020031739782928977,null,null
0.2523283333333334,0.002004671962132895,null,null
0.255185,0.0020061189365844596,null,null
0.2580416666666667,0.0020075183576386455,null,null
0.26089833333333334,0.0020088734540997244,null,null
0.263755,0.002010187236844505,null,null
0.2666116666666667,0.002011462520931885,null,null
0.26946833333333337,0.002012701941085717,null,null
0.27232500000000004,0.0020139079628251903,null,null
0.27518166666666666,0.0020150828929752992,null,null
0.27803833333333333,0.0020162288893687745,null,null
0.280895,0.002017347967136096,null,null
0.2837516666666667,0.002018442006477869,null,null
0.28660833333333335,0.0020195127586108705,null,null
0.28946500000000003,0.0020205618597213737,null,null
0.2923216666666667,0.0020215908370941962,null,null
0.2951783333333333,0.002022601114940243,null,null
0.29803500000000005,0.0020235940213419136,null,null
0.30089166666666667,0.002024570793255436,null,null
0.3037483333333334,0.0020255325799192684,null,null
0.306605,0.0020264804466387926,null,null
0.30946166666666675,0.0020274153781316548,null,null
0.31231833333333336,0.00202833828473542,null,null
0.31517500000000004,0.00202925000959036,null,null
0.3180316666666667,0.002030151338470603,null,null
0.32088833333333333,0.00203104300672607,null,null
0.32374500000000006,0.0020319256993765983,null,null
0.3266016666666667,0.0020328000516955163,null,null
0.32945833333333335,0.002033666651847796,null,null
0.332315,0.0020345260434672893,null,null
0.3351716666666667,0.002035378727837014,null,null
0.3380283333333334,0.0020362251659244205,null,null
0.340885,0.002037065780304589,null,null
0.34374166666666667,0.002037900957048028,null,null
0.34659833333333334,0.0020387310458438437,null,null
0.34945500000000007,0.002039556370233059,null,null
0.3523116666666667,0.0020403772251927146,null,null
0.3551683333333333,0.0020411938820305555,null,null
0.35802500000000004,0.002042006599035594,null,null
0.36088166666666666,0.0020428156292953306,null,null
0.3637383333333334,0.0020436212262734572,null,null
0.366595,0.0020444236370452716,null,null
0.36945166666666673,0.002045223069224705,null,null
0.37230833333333335,0.002046019716746827,null,null
0.375165,0.0020468137303500623,null,null
0.3780216666666667,0.0020476052318795885,null,null
0.3808783333333334,0.0020483943157209787,null,null
0.38373500000000005,0.0020491810419144894,null,null
0.38659166666666667,0.0020499654404537862,null,null
0.3894483333333334,0.002050747530764519,null,null
0.392305,0.0020515273361986284,null,null
0.39516166666666674,0.0020523048870187506,null,null
0.39801833333333336,0.002053080218114862,null,null
0.400875,0.002053853365383078,null,null
0.4037316666666667,0.0020546243622505092,null,null
0.40658833333333333,0.002055393237232121,null,null
0.40944500000000006,0.002056160012752258,null,null
0.4123016666666667,0.0020569247054146576,null,null
0.4151583333333334,0.00205768732700099,null,null
0.418015,0.0020584478851619803,null,null
0.42087166666666664,0.0020592063838388098,null,null
0.4237283333333334,0.0020599628237427904,null,null
0.426585,0.002060717202954762,null,null
0.4294416666666667,0.0020614695175827278,null,null
0.43229833333333334,0.0020622197624066982,null,null
0.43515500000000007,0.00206296793146742,null,null
0.4380116666666667,0.0020637140186017277,null,null
0.44086833333333336,0.002064458017906612,null,null
0.44372500000000004,0.0020651999241486853,null,null
0.4465816666666667,0.0020659397330673643,null,null
0.4494383333333334,0.0020666774416620896,null,null
0.452295,0.0020674130485555066,null,null
0.45515166666666673,0.0020681465544291635,null,null
0.45800833333333335,0.00206887796258708,null,null
0.4608650000000001,0.0020696072798880643,null,null
0.4637216666666667,0.0020703345182038124,null,null
0.4665783333333333,0.002071059696703642,null,null
0.46943500000000005,0.002071782844908519,null,null
0.47229166666666667,0.0020725040109511933,null,null
0.4751483333333334,0.0020732232672751104,null,null
0.478005,0.0020739407432101916,null,null
0.4808616666666667,0.002074656614796362,null,null
0.48371833333333336,0.002075371278213584,null,null
0.486575,0.002076085102508747,null,null
0.4894316666666667,0.002076799590086194,null,null
0.49228833333333333,0.0020775148037860403,null,null
0.49514500000000006,0.002078238378576926,null,null
0.4980016666666667,0.002078962996751258,null,null
0.5008583333333334,0.0020797428243307732,null,null
0.5037150000000001,0.0020804921926024828,null,null
0.5065716666666666,0.0020816610908633106,null,null
-0.049783999999999995,0.0028890943583064752,null,null
-0.047752,0.002897104764526785,null,null
-0.04572,0.002905048046175999,null,null
-0.043688,0.0029129084264622575,null,null
-0.041656,0.002920713629952018,null,null
-0.039624,0.0029285109173373108,null,null
-0.037592,0.002936341102093899,null,null
-0.035559999999999994,0.0029442445571811497,null,null
-0.033528,0.0029522652275501366,null,null
-0.031495999999999996,0.002960450260469495,null,null
-0.029463999999999997,0.0029688502872595277,null,null
-0.027431999999999998,0.002977520482013712,null,null
-0.0254,0.0029865217570886195,null,null
-0.023368,0.0029959221967562986,null,null
-0.021336,0.003005798938101028,null,null
-0.019304,0.0030162406412940585,null,null
-0.017272,0.0030273508542793116,null,null
-0.01524,0.0030392523959013908,null,null
-0.013207999999999998,0.0030520944582324914,null,null
-0.011175999999999998,0.003066058758678109,null,null
-0.009144,0.003081385867072353,null,null
-0.007111999999999997,0.0030983402265093545,null,null
-0.005079999999999998,0.0031174724962622245,null,null
-0.0030479999999999986,0.003138697335482035,null,null
-0.0010159999999999995,0.0031700553028325288,null,null
